Wavelength (µm),"Reflectance, Unpol. (%)"
0.5,49.0579635
0.501,49.871376
0.502,50.7429
0.503,51.619446
0.504,52.508844
0.505,53.4009125
0.506,54.303254
0.507,55.215428
0.508,56.1087245
0.509,57.0281945
0.51,57.9218355
0.511,58.8168175
0.512,59.717736
0.513,60.589492
0.514,61.4646155
0.515,62.3115315
0.516,63.144713
0.517,63.9556705
0.518,64.7528255
0.519,65.4981105
0.52,66.2915265
0.521,67.025172
0.522,67.7400355
0.523,68.4478845
0.524,69.127224
0.525,69.7994515
0.526,70.460136
0.527,71.0603525
0.528,71.696632
0.529,72.285778
0.53,72.881348
0.531,73.445132
0.532,73.9731395
0.533,74.526194
0.534,75.032084
0.535,75.547833
0.536,76.0414225
0.537,76.52134
0.538,76.9762995
0.539,77.4308125
0.54,77.870886
0.541,78.295276
0.542,78.715703
0.543,79.0997215
0.544,79.509409
0.545,79.897316
0.546,80.250648
0.547,80.6187665
0.548,80.980824
0.549,81.340428
0.55,81.661026
0.551,81.9792525
0.552,82.30448
0.553,82.6089015
0.554,82.931389
0.555,83.214214
0.556,83.5095955
0.557,83.7837565
0.558,84.048749
0.559,84.3125795
0.56,84.573523
0.561,84.828912
0.562,85.0758415
0.563,85.313345
0.564,85.560082
0.565,85.779712
0.566,85.998356
0.567,86.2296
0.568,86.4179475
0.569,86.635127
0.57,86.8420615
0.571,87.0307
0.572,87.2445245
0.573,87.4281515
0.574,87.611001
0.575,87.795008
0.576,87.951138
0.577,88.154367
0.578,88.3236895
0.579,88.4743325
0.58,88.646383
0.581,88.8040365
0.582,88.9635085
0.583,89.1297905
0.584,89.2645035
0.585,89.4010795
0.586,89.5530155
0.587,89.6842795
0.588,89.823607
0.589,89.973143
0.59,90.092473
0.591,90.212554
0.592,90.3624165
0.593,90.4715355
0.594,90.584798
0.595,90.7153955
0.596,90.81834
0.597,90.9624125
0.598,91.063862
0.599,91.161727
0.6,91.259458
0.601,91.370002
0.602,91.468804
0.603,91.58209
0.604,91.673363
0.605,91.7656875
0.606,91.8662575
0.607,91.962493
0.608,92.0443315
0.609,92.136586
0.61,92.221103
0.611,92.3097565
0.612,92.4047875
0.613,92.4916645
0.614,92.571572
0.615,92.638336
0.616,92.721346
0.617,92.8033015
0.618,92.895242
0.619,92.965961
0.62,93.0168035
0.621,93.097667
0.622,93.174236
0.623,93.2409745
0.624,93.3318165
0.625,93.38585
0.626,93.458229
0.627,93.5070065
0.628,93.575565
0.629,93.649983
0.63,93.7152145
0.631,93.778866
0.632,93.841332
0.633,93.893086
0.634,93.965588
0.635,94.021463
0.636,94.0772875
0.637,94.1369685
0.638,94.2104325
0.639,94.2541555
0.64,94.296049
0.641,94.338128
0.642,94.4173475
0.643,94.4439175
0.644,94.5040675
0.645,94.5724125
0.646,94.6207765
0.647,94.65164
0.648,94.710839
0.649,94.7650815
0.65,94.7896155
0.651,94.834241
0.652,94.900198
0.653,94.941345
0.654,94.9811345
0.655,95.015721
0.656,95.062979
0.657,95.1181175
0.658,95.1398345
0.659,95.1919825
0.66,95.2254065
0.661,95.2712185
0.662,95.324498
0.663,95.350693
0.664,95.3717245
0.665,95.435452
0.666,95.460495
0.667,95.496617
0.668,95.5360645
0.669,95.55227
0.67,95.5887225
0.671,95.6262995
0.672,95.6477655
0.673,95.6851485
0.674,95.712485
0.675,95.761951
0.676,95.7874395
0.677,95.8040825
0.678,95.832388
0.679,95.8540865
0.68,95.872112
0.681,95.9078365
0.682,95.923944
0.683,95.957178
0.684,95.976518
0.685,96.001802
0.686,96.038399
0.687,96.050846
0.688,96.078283
0.689,96.0875685
0.69,96.0985455
0.691,96.1364515
0.692,96.1609045
0.693,96.169317
0.694,96.192911
0.695,96.2062375
0.696,96.2094535
0.697,96.242427
0.698,96.2500595
0.699,96.252248
0.7,96.288205
0.701,96.2924095
0.702,96.3204515
0.703,96.312047
0.704,96.3137745
0.705,96.354993
0.706,96.3750875
0.707,96.3575185
0.708,96.409683
0.709,96.4067985
0.71,96.397493
0.711,96.4086915
0.712,96.4353705
0.713,96.4577025
0.714,96.4730975
0.715,96.4558295
0.716,96.4883925
0.717,96.469661
0.718,96.499898
0.719,96.520541
0.72,96.5656855
0.721,96.5734295
0.722,96.5813345
0.723,96.5803565
0.724,96.5989195
0.725,96.624907
0.726,96.5762025
0.727,96.5935065
0.728,96.628279
0.729,96.630122
0.73,96.627097
0.731,96.650574
0.732,96.6854495
0.733,96.648092
0.734,96.7132735
0.735,96.688874
0.736,96.6682365
0.737,96.694992
0.738,96.6831845
0.739,96.707458
0.74,96.7233955
0.741,96.7491075
0.742,96.757068
0.743,96.76743
0.744,96.761861
0.745,96.763171
0.746,96.8366595
0.747,96.7562515
0.748,96.811022
0.749,96.8131225
0.75,96.7997895
0.751,96.830089
0.752,96.851523
0.753,96.8360425
0.754,96.8432755
0.755,96.842952
0.756,96.834998
0.757,96.880451
0.758,96.853169
0.759,96.8695375
0.76,96.8725235
0.761,96.878041
0.762,96.857698
0.763,96.8689125
0.764,96.8746575
0.765,96.894556
0.766,96.896338
0.767,96.931401
0.768,96.9211755
0.769,96.9222295
0.77,96.959592
0.771,96.955702
0.772,96.942168
0.773,96.937066
0.774,96.9565805
0.775,96.950049
0.776,96.9743785
0.777,96.9729665
0.778,96.962141
0.779,96.989886
0.78,97.006937
0.781,97.0111025
0.782,97.023167
0.783,97.0180525
0.784,97.0226375
0.785,97.052282
0.786,97.057405
0.787,97.0266125
0.788,97.0731085
0.789,97.032012
0.79,97.0751775
0.791,97.0635775
0.792,97.058269
0.793,97.0750755
0.794,97.065833
0.795,97.077735
0.796,97.0831935
0.797,97.0755445
0.798,97.0854675
0.799,97.0976735
0.8,97.098229
0.801,97.119859
0.802,97.1289075
0.803,97.1218335
0.804,97.143911
0.805,97.11719
0.806,97.162116
0.807,97.16066
0.808,97.164297
0.809,97.1537995
0.81,97.160498
0.811,97.1740915
0.812,97.1819445
0.813,97.1805345
0.814,97.163246
0.815,97.195069
0.816,97.219575
0.817,97.195603
0.818,97.19042
0.819,97.211694
0.82,97.202737
0.821,97.21283
0.822,97.219596
0.823,97.234756
0.824,97.236553
0.825,97.2416895
0.826,97.2318585
0.827,97.24635
0.828,97.224221
0.829,97.2644045
0.83,97.252576
0.831,97.2272135
0.832,97.232774
0.833,97.2535215
0.834,97.2649825
0.835,97.2686415
0.836,97.2660045
0.837,97.2957325
0.838,97.2842965
0.839,97.2687795
0.84,97.2930925
0.841,97.3108855
0.842,97.2989145
0.843,97.2982305
0.844,97.2953245
0.845,97.3121935
0.846,97.3105305
0.847,97.3114155
0.848,97.328333
0.849,97.318432
0.85,97.3361775
0.851,97.3271185
0.852,97.3239975
0.853,97.340157
0.854,97.3395705
0.855,97.346655
0.856,97.3598145
0.857,97.356394
0.858,97.364421
0.859,97.3717295
0.86,97.382447
0.861,97.3777185
0.862,97.380073
0.863,97.3715325
0.864,97.3805975
0.865,97.3913305
0.866,97.3990195
0.867,97.3951335
0.868,97.399331
0.869,97.412103
0.87,97.3947815
0.871,97.395841
0.872,97.4012355
0.873,97.394996
0.874,97.400754
0.875,97.432453
0.876,97.418368
0.877,97.4094285
0.878,97.4092445
0.879,97.4170045
0.88,97.42748
0.881,97.433569
0.882,97.431396
0.883,97.438308
0.884,97.4407855
0.885,97.4468475
0.886,97.4466385
0.887,97.448338
0.888,97.448695
0.889,97.4612415
0.89,97.460654
0.891,97.4738465
0.892,97.4756905
0.893,97.4731545
0.894,97.48009
0.895,97.480718
0.896,97.4966165
0.897,97.4957285
0.898,97.498188
0.899,97.494166
0.9,97.5052025
0.901,97.5034425
0.902,97.506856
0.903,97.5103455
0.904,97.508746
0.905,97.513394
0.906,97.517475
0.907,97.5219285
0.908,97.5281835
0.909,97.525826
0.91,97.535592
0.911,97.537022
0.912,97.5341355
0.913,97.533723
0.914,97.5533925
0.915,97.53484
0.916,97.5378325
0.917,97.538783
0.918,97.54041
0.919,97.5444565
0.92,97.5489455
0.921,97.558338
0.922,97.5575435
0.923,97.5609285
0.924,97.562683
0.925,97.5774755
0.926,97.5836725
0.927,97.582523
0.928,97.58231
0.929,97.5927775
0.93,97.6007105
0.931,97.5987665
0.932,97.5972635
0.933,97.600131
0.934,97.603469
0.935,97.609838
0.936,97.6093195
0.937,97.6134265
0.938,97.618539
0.939,97.616393
0.94,97.644939
0.941,97.619485
0.942,97.624988
0.943,97.6275415
0.944,97.613644
0.945,97.6466195
0.946,97.652352
0.947,97.651045
0.948,97.651079
0.949,97.656672
0.95,97.66616
0.951,97.6615275
0.952,97.6577545
0.953,97.662696
0.954,97.669421
0.955,97.665335
0.956,97.6681625
0.957,97.6733685
0.958,97.67582
0.959,97.6777465
0.96,97.675377
0.961,97.676122
0.962,97.6840155
0.963,97.6785285
0.964,97.690717
0.965,97.690173
0.966,97.692885
0.967,97.7001115
0.968,97.7081055
0.969,97.713732
0.97,97.7142285
0.971,97.7132755
0.972,97.7137305
0.973,97.7115635
0.974,97.7112265
0.975,97.7103585
0.976,97.717657
0.977,97.719839
0.978,97.722153
0.979,97.71982
0.98,97.724028
0.981,97.7235435
0.982,97.7308865
0.983,97.7298135
0.984,97.725916
0.985,97.732343
0.986,97.7382605
0.987,97.7408925
0.988,97.7411195
0.989,97.7461985
0.99,97.749574
0.991,97.7530635
0.992,97.7585615
0.993,97.757359
0.994,97.762278
0.995,97.7632415
0.996,97.7693195
0.997,97.767678
0.998,97.7687195
0.999,97.773081
1,97.773315
1.001,97.79458
1.002,97.80454
1.003,97.8062395
1.004,97.7819905
1.005,97.7727875
1.006,97.771295
1.007,97.771764
1.008,97.773887
1.009,97.7753935
1.01,97.770591
1.011,97.779458
1.012,97.776
1.013,97.7797025
1.014,97.7807105
1.015,97.7773355
1.016,97.7797025
1.017,97.782444
1.018,97.780855
1.019,97.7756755
1.02,97.7787405
1.021,97.7890315
1.022,97.784961
1.023,97.784405
1.024,97.7873645
1.025,97.785907
1.026,97.786031
1.027,97.790693
1.028,97.7847745
1.029,97.784083
1.03,97.7962105
1.031,97.7961785
1.032,97.838565
1.033,97.845574
1.034,97.841072
1.035,97.826869
1.036,97.8249075
1.037,97.8232315
1.038,97.823811
1.039,97.8135845
1.04,97.812684
1.041,97.811326
1.042,97.8138835
1.043,97.8125485
1.044,97.8142595
1.045,97.817609
1.046,97.820843
1.047,97.8241045
1.048,97.824904
1.049,97.8260055
1.05,97.774334
1.051,97.8081745
1.052,97.811554
1.053,97.836571
1.054,97.802189
1.055,97.8040165
1.056,97.848633
1.057,97.863388
1.058,97.857994
1.059,97.8368035
1.06,97.80653
1.061,97.8630865
1.062,97.8243295
1.063,97.851608
1.064,97.8768995
1.065,97.8566285
1.066,97.880943
1.067,97.84375
1.068,97.8213345
1.069,97.8249055
1.07,97.821861
1.071,97.8535995
1.072,97.8743515
1.073,97.8599245
1.074,97.885529
1.075,97.8483775
1.076,97.8717
1.077,97.8534165
1.078,97.9114155
1.079,97.9163325
1.08,97.8995745
1.081,97.8844985
1.082,97.8646965
1.083,97.879665
1.084,97.8898315
1.085,97.8799285
1.086,97.868195
1.087,97.9125405
1.088,97.8867185
1.089,97.8826485
1.09,97.857193
1.091,97.9006085
1.092,97.8978005
1.093,97.900219
1.094,97.912052
1.095,97.9231605
1.096,97.9136235
1.097,97.9059065
1.098,97.891655
1.099,97.914989
1.1,97.9008405
1.101,97.91996
1.102,97.902573
1.103,97.9536135
1.104,97.9247475
1.105,97.954983
1.106,97.9647295
1.107,97.9254535
1.108,97.9730225
1.109,97.9494475
1.11,97.966305
1.111,97.9519155
1.112,97.9432145
1.113,97.9447935
1.114,97.9505615
1.115,97.948334
1.116,97.927086
1.117,97.9502525
1.118,97.95055
1.119,97.915905
1.12,97.948925
1.121,97.9126665
1.122,97.948948
1.123,97.952904
1.124,97.9660335
1.125,97.98452
1.126,97.948738
1.127,97.954067
1.128,97.9816935
1.129,97.9652215
1.13,97.96537
1.131,97.97369
1.132,97.9799575
1.133,98.004074
1.134,97.9932215
1.135,97.966957
1.136,97.9717715
1.137,97.9556735
1.138,97.9811555
1.139,97.981522
1.14,97.962845
1.141,98.0047915
1.142,97.96373
1.143,97.987583
1.144,97.9673995
1.145,97.9982035
1.146,97.997494
1.147,98.001213
1.148,97.992798
1.149,97.982971
1.15,97.969799
1.151,98.0265505
1.152,98.0001905
1.153,98.0295945
1.154,98.000557
1.155,98.023487
1.156,97.985855
1.157,98.005657
1.158,97.962597
1.159,98.0062595
1.16,98.01429
1.161,97.9735145
1.162,98.0188065
1.163,98.0201185
1.164,98.036755
1.165,98.008442
1.166,98.0174295
1.167,97.993061
1.168,98.0179785
1.169,98.0346835
1.17,98.008232
1.171,98.0121385
1.172,98.0125465
1.173,98.017208
1.174,98.0286715
1.175,98.0438495
1.176,98.0335235
1.177,98.008907
1.178,98.0368615
1.179,98.004753
1.18,98.036034
1.181,98.0364875
1.182,98.03051
1.183,98.006935
1.184,98.028988
1.185,98.0432245
1.186,98.03804
1.187,98.020218
1.188,98.0457915
1.189,98.0586855
1.19,98.0494115
1.191,98.0515285
1.192,98.05328
1.193,98.053379
1.194,98.0561445
1.195,98.048969
1.196,98.0633085
1.197,98.055115
1.198,98.0505905
1.199,98.0686
1.2,98.081722
1.201,98.058159
1.202,98.0914
1.203,98.0719715
1.204,98.083973
1.205,98.060162
1.206,98.110916
1.207,98.1126175
1.208,98.0733795
1.209,98.073017
1.21,98.061947
1.211,98.124546
1.212,98.0900115
1.213,98.1169775
1.214,98.0861395
1.215,98.101608
1.216,98.1320915
1.217,98.098148
1.218,98.1029205
1.219,98.1138265
1.22,98.0923615
1.221,98.093456
1.222,98.114021
1.223,98.093426
1.224,98.104866
1.225,98.1231725
1.226,98.117706
1.227,98.1764715
1.228,98.1310425
1.229,98.161522
1.23,98.132866
1.231,98.180912
1.232,98.1318475
1.233,98.131077
1.234,98.1196325
1.235,98.109619
1.236,98.113922
1.237,98.125942
1.238,98.1249655
1.239,98.1234705
1.24,98.118763
1.241,98.128151
1.242,98.116211
1.243,98.128548
1.244,98.131096
1.245,98.134888
1.246,98.1362875
1.247,98.1361655
1.248,98.155159
1.249,98.1243365
1.25,98.1203
1.251,98.1304665
1.252,98.1282805
1.253,98.1536295
1.254,98.1444705
1.255,98.1282005
1.256,98.141403
1.257,98.117348
1.258,98.1323965
1.259,98.13327
1.26,98.1312485
1.261,98.139252
1.262,98.1495365
1.263,98.1586225
1.264,98.147892
1.265,98.132679
1.266,98.1347235
1.267,98.1370585
1.268,98.143429
1.269,98.163662
1.27,98.1603775
1.271,98.1431655
1.272,98.149456
1.273,98.122383
1.274,98.166416
1.275,98.1641465
1.276,98.150402
1.277,98.1465
1.278,98.1532555
1.279,98.157841
1.28,98.1620065
1.281,98.160587
1.282,98.153496
1.283,98.1736185
1.284,98.14999
1.285,98.1636735
1.286,98.177685
1.287,98.1911885
1.288,98.164482
1.289,98.1845665
1.29,98.195282
1.291,98.160187
1.292,98.1649285
1.293,98.171997
1.294,98.1729735
1.295,98.152832
1.296,98.1741675
1.297,98.180328
1.298,98.1798515
1.299,98.1567725
1.3,98.178013
1.301,98.188381
1.302,98.183422
1.303,98.1666525
1.304,98.1784855
1.305,98.1912805
1.306,98.1833345
1.307,98.1953165
1.308,98.1790125
1.309,98.161434
1.31,98.18758
1.311,98.1827505
1.312,98.167866
1.313,98.163021
1.314,98.1721725
1.315,98.177952
1.316,98.1841775
1.317,98.1904485
1.318,98.220108
1.319,98.1769215
1.32,98.182907
1.321,98.196552
1.322,98.200974
1.323,98.1768875
1.324,98.1853675
1.325,98.20224
1.326,98.194897
1.327,98.1932105
1.328,98.183178
1.329,98.2084545
1.33,98.206272
1.331,98.186287
1.332,98.1906055
1.333,98.191368
1.334,98.190716
1.335,98.1970825
1.336,98.1929205
1.337,98.194153
1.338,98.19315
1.339,98.1935005
1.34,98.1854405
1.341,98.2256735
1.342,98.2200165
1.343,98.182869
1.344,98.2030755
1.345,98.1798365
1.346,98.2204935
1.347,98.189304
1.348,98.1725735
1.349,98.204182
1.35,98.1992875
1.351,98.199955
1.352,98.2071075
1.353,98.2028385
1.354,98.1991845
1.355,98.2159425
1.356,98.1994895
1.357,98.20496
1.358,98.187191
1.359,98.1895145
1.36,98.1932675
1.361,98.2195015
1.362,98.220116
1.363,98.2441065
1.364,98.2346
1.365,98.228077
1.366,98.2104875
1.367,98.216759
1.368,98.1945725
1.369,98.2231065
1.37,98.1913335
1.371,98.2183685
1.372,98.2183035
1.373,98.209343
1.374,98.2064325
1.375,98.174671
1.376,98.2307895
1.377,98.2238275
1.378,98.222534
1.379,98.222122
1.38,98.240242
1.381,98.2279205
1.382,98.2346955
1.383,98.2159655
1.384,98.233379
1.385,98.224102
1.386,98.22422
1.387,98.23542
1.388,98.239826
1.389,98.219574
1.39,98.231411
1.391,98.2112695
1.392,98.2256965
1.393,98.2511405
1.394,98.226513
1.395,98.2516975
1.396,98.2366945
1.397,98.2477605
1.398,98.2366335
1.399,98.238159
1.4,98.2340545
1.401,98.226036
1.402,98.2166025
1.403,98.2255095
1.404,98.245552
1.405,98.2230875
1.406,98.243683
1.407,98.2414625
1.408,98.2285655
1.409,98.238636
1.41,98.228081
1.411,98.240898
1.412,98.2078935
1.413,98.231697
1.414,98.2455825
1.415,98.230526
1.416,98.242439
1.417,98.251732
1.418,98.245499
1.419,98.248924
1.42,98.2475815
1.421,98.2462465
1.422,98.2377775
1.423,98.260357
1.424,98.2456935
1.425,98.226433
1.426,98.234104
1.427,98.2429655
1.428,98.2588465
1.429,98.251579
1.43,98.2646445
1.431,98.2460555
1.432,98.2635075
1.433,98.2703325
1.434,98.2401165
1.435,98.2730565
1.436,98.2640305
1.437,98.2442245
1.438,98.2569315
1.439,98.251705
1.44,98.269287
1.441,98.2252045
1.442,98.240448
1.443,98.2528955
1.444,98.2473755
1.445,98.2373925
1.446,98.261322
1.447,98.271946
1.448,98.2467765
1.449,98.2465595
1.45,98.264702
1.451,98.2791325
1.452,98.243954
1.453,98.241268
1.454,98.227676
1.455,98.242298
1.456,98.269333
1.457,98.2828485
1.458,98.2658575
1.459,98.2374455
1.46,98.2413175
1.461,98.2409515
1.462,98.2560425
1.463,98.2478675
1.464,98.245575
1.465,98.232643
1.466,98.260933
1.467,98.254093
1.468,98.268669
1.469,98.2717515
1.47,98.266731
1.471,98.234238
1.472,98.2691915
1.473,98.267143
1.474,98.2677685
1.475,98.2452735
1.476,98.28154
1.477,98.2808265
1.478,98.243183
1.479,98.263733
1.48,98.229641
1.481,98.269802
1.482,98.2751005
1.483,98.280697
1.484,98.269417
1.485,98.2749825
1.486,98.2839395
1.487,98.267807
1.488,98.286015
1.489,98.303562
1.49,98.292992
1.491,98.278931
1.492,98.2687
1.493,98.2817035
1.494,98.303726
1.495,98.2985875
1.496,98.270855
1.497,98.266861
1.498,98.2830925
1.499,98.2719765
1.5,98.2854535
1.501,98.2738115
1.502,98.255428
1.503,98.281017
1.504,98.261799
1.505,98.287102
1.506,98.298054
1.507,98.2564395
1.508,98.2945675
1.509,98.2896385
1.51,98.2818645
1.511,98.286606
1.512,98.2902985
1.513,98.2752
1.514,98.278389
1.515,98.2944715
1.516,98.2974395
1.517,98.2846605
1.518,98.2601625
1.519,98.2726325
1.52,98.2869075
1.521,98.2961425
1.522,98.26136
1.523,98.265896
1.524,98.262066
1.525,98.300499
1.526,98.2666935
1.527,98.2815855
1.528,98.291283
1.529,98.293644
1.53,98.2660865
1.531,98.254162
1.532,98.2912945
1.533,98.2777825
1.534,98.2814445
1.535,98.303219
1.536,98.2697065
1.537,98.2878685
1.538,98.2760545
1.539,98.2963105
1.54,98.272949
1.541,98.2814405
1.542,98.3160935
1.543,98.3048595
1.544,98.311611
1.545,98.2756385
1.546,98.29723
1.547,98.293339
1.548,98.3156245
1.549,98.2831615
1.55,98.278179
1.551,98.2823335
1.552,98.2942965
1.553,98.2893675
1.554,98.2666015
1.555,98.296677
1.556,98.2976875
1.557,98.297352
1.558,98.299427
1.559,98.27306
1.56,98.293129
1.561,98.260948
1.562,98.29744
1.563,98.282532
1.564,98.2847635
1.565,98.316673
1.566,98.311882
1.567,98.2786825
1.568,98.2725945
1.569,98.295803
1.57,98.291359
1.571,98.280979
1.572,98.293579
1.573,98.287239
1.574,98.2893715
1.575,98.284218
1.576,98.2853735
1.577,98.2952005
1.578,98.2982675
1.579,98.269806
1.58,98.3428
1.581,98.300728
1.582,98.31604
1.583,98.274044
1.584,98.3283765
1.585,98.3239595
1.586,98.3017045
1.587,98.3178135
1.588,98.3106385
1.589,98.315102
1.59,98.3127445
1.591,98.293018
1.592,98.3004685
1.593,98.3149375
1.594,98.3353235
1.595,98.302521
1.596,98.2944145
1.597,98.300564
1.598,98.305763
1.599,98.2956465
1.6,98.2946355
1.601,98.3118515
1.602,98.3241845
1.603,98.289661
1.604,98.296158
1.605,98.306934
1.606,98.288967
1.607,98.319683
1.608,98.309368
1.609,98.3246995
1.61,98.314499
1.611,98.290493
1.612,98.3144455
1.613,98.2956315
1.614,98.310463
1.615,98.295925
1.616,98.2822305
1.617,98.295544
1.618,98.301346
1.619,98.291813
1.62,98.3042065
1.621,98.321743
1.622,98.3140185
1.623,98.3189735
1.624,98.3113975
1.625,98.294495
1.626,98.327026
1.627,98.3120345
1.628,98.2983205
1.629,98.298088
1.63,98.306549
1.631,98.3170625
1.632,98.3197825
1.633,98.302223
1.634,98.342663
1.635,98.288311
1.636,98.3342325
1.637,98.322891
1.638,98.288601
1.639,98.323364
1.64,98.3250465
1.641,98.3357965
1.642,98.2952615
1.643,98.3082045
1.644,98.329285
1.645,98.3344765
1.646,98.303814
1.647,98.308746
1.648,98.319275
1.649,98.332409
1.65,98.28603
1.651,98.3422015
1.652,98.316738
1.653,98.3157535
1.654,98.3275415
1.655,98.3392905
1.656,98.3226125
1.657,98.3160515
1.658,98.3278045
1.659,98.311798
1.66,98.307003
1.661,98.330135
1.662,98.3552055
1.663,98.3048515
1.664,98.3276975
1.665,98.3163685
1.666,98.3385125
1.667,98.323822
1.668,98.3236085
1.669,98.3446045
1.67,98.3278695
1.671,98.32872
1.672,98.3286095
1.673,98.33638
1.674,98.309006
1.675,98.339668
1.676,98.3382875
1.677,98.3468665
1.678,98.3311845
1.679,98.33057
1.68,98.277565
1.681,98.342815
1.682,98.3139495
1.683,98.3363225
1.684,98.3467365
1.685,98.309029
1.686,98.3361895
1.687,98.3249475
1.688,98.34642
1.689,98.3187675
1.69,98.3483125
1.691,98.3133165
1.692,98.359375
1.693,98.353981
1.694,98.356796
1.695,98.3172605
1.696,98.3255005
1.697,98.3378755
1.698,98.336136
1.699,98.3153345
1.7,98.310379
1.701,98.361908
1.702,98.3272895
1.703,98.3670235
1.704,98.357693
1.705,98.3326535
1.706,98.3356055
1.707,98.3412895
1.708,98.357212
1.709,98.3030775
1.71,98.3314705
1.711,98.32346
1.712,98.2868465
1.713,98.3294335
1.714,98.3413965
1.715,98.348843
1.716,98.3474885
1.717,98.3316305
1.718,98.332531
1.719,98.3196985
1.72,98.3650475
1.721,98.3395655
